Force,Acceleration
8.5,1.2
10.3,1.8
12.2,2.3
14.5,2.9
16.4,3.4
18.6,3.9
20.5,4.3
23.3,5.0
25.1,5.5
27.6,6.0
29.3,6.5
32.1,7.1
34.2,7.5
36.5,8.0
39.4,8.5
41.2,8.9
44.3,9.5
47.1,10.1
49.2,10.4
51.8,10.9
54.0,11.4
56.7,11.8
59.3,12.3
62.4,12.9
65.0,13.4